    Step 	 temperature 	 pressure 	 Potential Energy 	 Kinetic Energy 	 Sum Energy

       0	 2.17877	-1.55809	        -11551.8	         11032.5	        -519.248
       1	 2.17884	 -1.5548	        -11552.2	         11032.9	         -519.27
       2	   2.179	-1.54473	          -11553	         11033.7	        -519.342
       3	 2.17906	-1.52738	        -11553.5	           11034	        -519.471
       4	 2.17873	 -1.5018	          -11552	         11032.3	        -519.669
       5	 2.17752	-1.46656	        -11546.1	         11026.2	        -519.955
       6	 2.17475	-1.41968	        -11532.5	         11012.2	        -520.353
       7	 2.16948	-1.35846	        -11506.3	         10985.5	        -520.885
       8	 2.16047	-1.27953	        -11461.4	         10939.9	        -521.545
       9	  2.1463	-1.17899	        -11390.4	         10868.1	         -522.25
      10	 2.12559	-1.05338	        -11286.1	         10763.3	        -522.799
      11	  2.0976	-0.901216	        -11144.6	         10621.6	        -523.014
      12	 2.06259	-0.72424	        -10967.3	         10444.4	        -522.956
      13	  2.0217	-0.526958	          -10760	         10237.4	        -522.612
      14	 1.97696	-0.316513	        -10532.7	         10010.9	        -521.827
      15	 1.93143	-0.103243	        -10301.2	         9780.36	        -520.817
      16	 1.88862	0.101175	        -10083.6	         9563.65	        -519.946
      17	 1.85156	0.286705	        -9895.38	            9376	        -519.382
      18	  1.8222	 0.44656	        -9746.53	         9227.39	        -519.142
      19	  1.8014	0.577487	        -9641.25	         9122.07	        -519.178
      20	 1.78902	0.679324	         -9578.8	          9059.4	        -519.403
      21	 1.78425	0.754172	        -9554.99	         9035.26	        -519.731
      22	 1.78589	0.805529	        -9563.67	         9043.56	        -520.109
      23	 1.79253	0.837656	        -9597.71	         9077.19	         -520.52
      24	 1.80269	0.855221	        -9649.54	         9128.58	        -520.958
      25	 1.81483	0.863041	        -9711.48	         9190.09	        -521.389
      26	 1.82757	0.865661	        -9776.31	         9254.57	         -521.74
      27	 1.83982	0.866683	        -9838.48	         9316.55	        -521.933
      28	 1.85099	0.868158	         -9895.1	         9373.14	        -521.959
      29	 1.86106	0.870544	        -9946.01	         9424.12	        -521.888
      30	 1.87031	0.873298	        -9992.71	         9470.91	        -521.799
      31	  1.8791	0.875592	        -10037.1	         9515.41	        -521.735
      32	 1.88773	0.876758	        -10080.9	         9559.14	        -521.731
      33	 1.89634	0.876616	        -10124.5	         9602.73	        -521.819
      34	  1.9048	0.875688	        -10167.5	         9645.56	        -521.971
      35	 1.91284	0.874927	        -10208.3	         9686.26	        -522.086
      36	 1.92031	0.874943	        -10246.1	         9724.06	        -522.086
      37	 1.92734	0.875467	        -10281.7	         9759.65	        -522.015
      38	 1.93424	0.875709	        -10316.6	         9794.58	        -521.995
      39	 1.94117	0.875316	        -10351.7	         9829.65	        -522.094
      40	 1.94793	0.874955	        -10386.2	         9863.88	        -522.304
      41	 1.95399	0.876247	        -10417.1	         9894.58	        -522.561
      42	 1.95869	0.881187	        -10441.1	         9918.33	        -522.765
      43	  1.9615	0.891235	        -10455.4	          9932.6	        -522.832
      44	 1.96238	 0.90656	        -10459.7	         9937.03	        -522.709
      45	 1.96181	0.925639	        -10456.6	         9934.16	        -522.437
      46	 1.96072	0.945698	        -10450.8	         9928.66	        -522.167
      47	 1.96005	0.963958	        -10447.2	         9925.22	        -522.018
      48	 1.96034	0.978728	        -10448.7	          9926.7	        -522.045
      49	 1.96161	 0.98992	        -10455.4	         9933.16	        -522.261
      50	 1.96334	0.999072	        -10464.5	          9941.9	        -522.567
      51	 1.96474	 1.00846	        -10471.8	         9948.99	        -522.777
      52	  1.9653	 1.01958	        -10474.6	         9951.82	        -522.795
      53	 1.96504	 1.03234	        -10473.2	         9950.51	        -522.659
      54	 1.96445	 1.04529	          -10470	         9947.52	        -522.449
      55	 1.96422	 1.05639	        -10468.6	         9946.36	        -522.282
      56	 1.96489	 1.06401	          -10472	         9949.76	        -522.266
      57	 1.96657	 1.06786	        -10480.6	         9958.23	        -522.378
      58	 1.96894	 1.06883	        -10492.8	         9970.25	        -522.537
      59	 1.97154	 1.06834	        -10506.1	         9983.39	        -522.692
      60	 1.97389	 1.06779	        -10518.1	         9995.33	         -522.79
      61	 1.97573	 1.06807	        -10527.4	         10004.6	        -522.777
      62	  1.9771	 1.06915	        -10534.2	         10011.5	        -522.667
      63	 1.97828	 1.07022	        -10540.1	         10017.6	         -522.55
      64	 1.97963	 1.07039	        -10546.9	         10024.4	        -522.515
      65	 1.98126	 1.06943	        -10555.2	         10032.6	        -522.589
      66	 1.98298	 1.06793	          -10564	         10041.3	         -522.71
      67	 1.98449	  1.0669	        -10571.8	           10049	        -522.804
      68	 1.98553	 1.06715	        -10577.1	         10054.2	        -522.845
      69	 1.98598	 1.06902	        -10579.3	         10056.5	        -522.826
      70	 1.98594	 1.07224	          -10579	         10056.3	        -522.701
      71	 1.98585	 1.07564	        -10578.3	         10055.8	        -522.479
      72	 1.98626	 1.07745	        -10580.3	         10057.9	        -522.383
      73	 1.98743	 1.07696	        -10586.4	         10063.9	        -522.512
      74	 1.98902	 1.07516	        -10594.6	         10071.9	        -522.666
      75	 1.99057	 1.07343	        -10602.5	         10079.7	        -522.751
      76	 1.99176	 1.07261	        -10608.6	         10085.8	        -522.809
      77	 1.99241	 1.07322	        -10611.9	         10089.1	        -522.823
      78	 1.99251	 1.07529	        -10612.3	         10089.5	        -522.783
      79	 1.99218	 1.07838	        -10610.6	         10087.9	        -522.721
      80	 1.99166	 1.08178	        -10607.9	         10085.3	        -522.652
      81	  1.9912	 1.08471	        -10605.6	           10083	        -522.611
      82	 1.99098	 1.08666	        -10604.5	         10081.8	        -522.623
      83	 1.99106	 1.08751	        -10604.8	         10082.2	        -522.616
      84	 1.99151	  1.0871	          -10607	         10084.5	        -522.526
      85	 1.99256	 1.08485	        -10612.2	         10089.8	        -522.446
      86	 1.99431	 1.08045	        -10621.2	         10098.7	        -522.533
      87	 1.99644	 1.07495	        -10632.3	         10109.5	        -522.793
      88	 1.99817	 1.07069	        -10641.3	         10118.2	        -523.067
      89	  1.9987	 1.07003	        -10644.2	         10120.9	         -523.25
      90	 1.99754	 1.07441	        -10638.3	           10115	        -523.307
      91	 1.99466	 1.08384	        -10623.6	         10100.5	        -523.164
      92	 1.99071	 1.09644	        -10603.2	         10080.5	        -522.782
      93	 1.98695	 1.10839	        -10583.8	         10061.4	        -522.351
      94	 1.98471	 1.11563	        -10572.3	         10050.1	        -522.221
      95	 1.98446	 1.11671	        -10571.3	         10048.8	        -522.471
      96	  1.9856	 1.11333	        -10577.4	         10054.6	        -522.794
      97	 1.98721	 1.10818	        -10585.7	         10062.7	        -522.933
      98	 1.98879	 1.10271	        -10593.6	         10070.7	        -522.872
      99	 1.99036	 1.09683	        -10601.4	         10078.7	         -522.72
     100	  1.9922	 1.08969	        -10610.6	           10088	        -522.639
     101	 1.99445	 1.08094	        -10622.1	         10099.4	        -522.717
     102	 1.99682	 1.07141	        -10634.3	         10111.4	        -522.871
     103	 1.99887	 1.06251	        -10644.7	         10121.7	        -522.944
     104	 2.00032	 1.05503	          -10652	         10129.1	        -522.859
     105	 2.00135	 1.04855	          -10657	         10134.3	        -522.696
     106	 2.00232	 1.04198	        -10661.8	         10139.2	         -522.56
     107	 2.00361	  1.0344	        -10668.2	         10145.8	         -522.45
     108	 2.00548	 1.02513	        -10677.6	         10155.2	        -522.374
     109	 2.00807	 1.01388	        -10690.8	         10168.3	        -522.411
     110	 2.01118	 1.00136	        -10706.7	         10184.1	        -522.618
     111	 2.01417	0.989595	        -10722.2	         10199.2	        -522.946
     112	  2.0161	0.981468	        -10732.2	           10209	        -523.211
     113	 2.01627	0.979161	        -10733.1	         10209.9	        -523.182
     114	 2.01478	0.982466	        -10725.2	         10202.3	        -522.886
     115	  2.0124	0.989041	        -10712.9	         10190.3	        -522.624
     116	 2.00989	0.996615	        -10700.1	         10177.6	        -522.559
     117	 2.00751	 1.00437	        -10688.2	         10165.5	        -522.673
     118	 2.00502	 1.01288	        -10675.8	         10152.9	        -522.853
     119	 2.00203	  1.0232	        -10660.7	         10137.8	        -522.948
     120	 1.99836	 1.03568	        -10642.1	         10119.2	        -522.886
     121	  1.9943	 1.04934	        -10621.3	         10098.6	        -522.707
     122	 1.99047	  1.0622	        -10601.7	         10079.2	        -522.483
     123	 1.98762	 1.07197	        -10587.1	         10064.8	        -522.277
     124	 1.98641	 1.07666	        -10580.9	         10058.7	         -522.15
     125	 1.98719	 1.07521	        -10584.8	         10062.7	        -522.169
     126	 1.98983	 1.06804	        -10598.4	           10076	        -522.347
     127	  1.9937	 1.05706	        -10618.3	         10095.6	        -522.667
     128	 1.99774	 1.04542	        -10639.1	         10116.1	         -523.06
     129	 2.00078	 1.03669	        -10654.8	         10131.5	        -523.362
     130	 2.00199	 1.03342	        -10660.9	         10137.5	         -523.39
     131	 2.00132	 1.03574	        -10657.3	         10134.2	        -523.127
     132	 1.99954	  1.0414	          -10648	         10125.2	        -522.844
     133	 1.99748	 1.04788	        -10637.5	         10114.8	        -522.698
     134	 1.99564	 1.05374	        -10628.1	         10105.4	        -522.651
     135	 1.99415	 1.05849	        -10620.5	         10097.9	        -522.636
     136	 1.99306	 1.06201	        -10614.9	         10092.3	        -522.596
     137	 1.99238	 1.06417	        -10611.5	         10088.9	         -522.61
     138	 1.99202	 1.06526	        -10609.8	         10087.1	        -522.712
     139	 1.99171	 1.06608	        -10608.2	         10085.5	        -522.738
     140	 1.99139	 1.06683	        -10606.5	         10083.9	        -522.609
     141	 1.99138	  1.0666	        -10606.3	         10083.8	        -522.488
     142	 1.99197	 1.06448	        -10609.4	         10086.8	        -522.528
     143	 1.99308	 1.06077	        -10615.2	         10092.5	        -522.685
     144	 1.99432	 1.05669	        -10621.6	         10098.7	         -522.84
     145	 1.99527	 1.05344	        -10626.4	         10103.5	          -522.9
     146	 1.99581	 1.05148	        -10629.1	         10106.3	        -522.848
     147	 1.99606	 1.05045	        -10630.4	         10107.6	        -522.802
     148	 1.99612	 1.05009	        -10630.7	         10107.9	        -522.848
     149	 1.99588	 1.05076	        -10629.5	         10106.6	        -522.886
     150	 1.99522	 1.05279	        -10626.1	         10103.3	         -522.82
     151	 1.99432	 1.05568	        -10621.4	         10098.7	        -522.668
     152	 1.99358	 1.05819	        -10617.5	           10095	        -522.516
     153	 1.99341	 1.05909	        -10616.6	         10094.1	        -522.477
     154	 1.99392	 1.05804	        -10619.3	         10096.7	        -522.566
     155	 1.99489	 1.05575	        -10624.3	         10101.6	        -522.675
     156	 1.99601	 1.05315	          -10630	         10107.3	        -522.714
     157	 1.99712	 1.05073	        -10635.6	         10112.9	        -522.703
     158	  1.9982	 1.04861	        -10641.1	         10118.4	        -522.739
     159	 1.99911	 1.04724	        -10645.9	           10123	        -522.853
     160	 1.99956	 1.04754	        -10648.2	         10125.3	        -522.937
     161	 1.99936	 1.05012	        -10647.2	         10124.2	        -522.916
     162	 1.99855	 1.05476	          -10643	         10120.1	        -522.893
     163	 1.99723	 1.06111	        -10636.4	         10113.4	        -522.923
     164	  1.9954	 1.06905	        -10627.1	         10104.2	        -522.897
     165	 1.99319	 1.07808	        -10615.8	           10093	        -522.811
     166	 1.99088	 1.08725	        -10604.1	         10081.3	        -522.748
     167	  1.9887	 1.09571	          -10593	         10070.3	        -522.697
     168	 1.98688	 1.10278	        -10583.7	           10061	        -522.654
     169	 1.98551	 1.10804	        -10576.8	         10054.1	        -522.719
     170	 1.98443	  1.1119	        -10571.6	         10048.7	        -522.881
     171	  1.9833	 1.11545	        -10565.9	         10042.9	        -522.947
     172	 1.98203	 1.11892	        -10559.3	         10036.5	        -522.793
     173	 1.98115	 1.12084	        -10554.6	         10032.1	        -522.505
     174	 1.98148	  1.1188	        -10556.1	         10033.7	        -522.362
     175	 1.98341	 1.11164	          -10566	         10043.5	        -522.497
     176	 1.98654	 1.10065	        -10582.2	         10059.4	        -522.814
     177	 1.98992	 1.08872	        -10599.6	         10076.5	        -523.099
     178	 1.99263	 1.07862	        -10613.4	         10090.2	        -523.196
     179	 1.99422	 1.07165	        -10621.4	         10098.2	        -523.145
     180	 1.99475	 1.06775	        -10623.9	         10100.9	        -522.961
     181	  1.9947	 1.06553	        -10623.3	         10100.7	        -522.637
     182	 1.99498	 1.06246	        -10624.3	         10102.1	        -522.266
     183	 1.99655	 1.05571	        -10632.1	           10110	         -522.03
     184	 1.99997	 1.04376	        -10649.5	         10127.3	        -522.122
     185	 2.00483	 1.02783	        -10674.5	           10152	        -522.533
     186	 2.00989	 1.01176	        -10700.6	         10177.6	        -523.015
     187	 2.01368	 0.99993	        -10720.1	         10196.7	         -523.31
     188	 2.01529	0.995102	        -10728.2	         10204.9	        -523.324
     189	 2.01466	0.997537	        -10724.8	         10201.7	        -523.107
     190	 2.01245	 1.00532	        -10713.3	         10190.5	        -522.796
     191	 2.00961	  1.0156	        -10698.8	         10176.2	         -522.59
     192	 2.00689	 1.02618	        -10684.9	         10162.3	        -522.573
     193	 2.00447	 1.03636	        -10672.8	         10150.1	        -522.672
     194	 2.00217	 1.04652	        -10661.3	         10138.5	        -522.866
     195	 1.99952	 1.05785	        -10648.1	           10125	        -523.022
     196	 1.99618	  1.0712	        -10631.1	         10108.1	        -522.973
     197	 1.99236	  1.0858	        -10611.5	         10088.8	         -522.74
     198	 1.98879	 1.09935	        -10593.2	         10070.7	        -522.435
     199	 1.98641	 1.10898	        -10580.9	         10058.7	        -522.222
     200	 1.98588	 1.11266	        -10578.2	           10056	         -522.23
     201	 1.98723	  1.1103	        -10585.3	         10062.9	        -522.454
     202	 1.98986	 1.10371	        -10598.9	         10076.2	        -522.764
     203	 1.99289	 1.09555	        -10614.5	         10091.5	        -523.013
     204	 1.99559	 1.08817	        -10628.3	         10105.2	        -523.124
     205	 1.99756	 1.08283	        -10638.3	         10115.1	        -523.131
     206	  1.9987	 1.07999	          -10644	         10120.9	        -523.123
     207	 1.99898	 1.07987	        -10645.5	         10122.3	         -523.13
     208	 1.99837	 1.08266	        -10642.4	         10119.3	        -523.146
     209	 1.99684	 1.08847	        -10634.7	         10111.5	        -523.146
     210	 1.99448	 1.09705	        -10622.6	         10099.6	        -523.061
     211	 1.99166	 1.10728	        -10608.1	         10085.3	         -522.88
     212	 1.98901	 1.11718	        -10594.6	         10071.9	        -522.701
     213	 1.98718	 1.12477	        -10585.2	         10062.6	        -522.637
     214	 1.98648	 1.12904	        -10581.8	           10059	        -522.776
     215	 1.98663	 1.13069	        -10582.9	         10059.8	        -523.055
     216	   1.987	 1.13155	          -10585	         10061.7	        -523.294
     217	 1.98709	 1.13305	        -10585.4	         10062.1	        -523.302
     218	 1.98702	 1.13487	        -10584.9	         10061.8	        -523.107
     219	 1.98732	 1.13531	        -10586.4	         10063.3	        -523.062
     220	 1.98818	 1.13391	        -10590.9	         10067.6	        -523.214
     221	 1.98923	 1.13179	        -10596.3	           10073	        -523.328
     222	 1.99006	 1.13009	        -10600.6	         10077.2	        -523.395
     223	 1.99045	 1.12951	        -10602.5	         10079.2	        -523.352
     224	  1.9905	 1.12979	        -10602.5	         10079.4	         -523.14
     225	 1.99069	 1.12948	        -10603.3	         10080.3	        -522.947
     226	 1.99144	 1.12735	        -10607.1	         10084.1	        -522.942
     227	 1.99265	 1.12372	        -10613.4	         10090.3	        -523.134
     228	  1.9937	 1.12049	        -10618.9	         10095.6	        -523.371
     229	 1.99383	 1.11981	        -10619.8	         10096.3	        -523.498
     230	 1.99266	 1.12285	        -10613.8	         10090.3	        -523.444
     231	 1.99035	 1.12903	        -10601.8	         10078.6	        -523.196
     232	 1.98767	  1.1361	        -10587.9	         10065.1	        -522.835
     233	  1.9857	 1.14087	        -10577.6	         10055.1	        -522.547
     234	 1.98525	 1.14082	        -10575.3	         10052.8	        -522.499
     235	 1.98652	 1.13548	        -10581.9	         10059.2	         -522.66
     236	 1.98907	 1.12621	          -10595	         10072.1	        -522.835
     237	 1.99233	 1.11476	        -10611.6	         10088.7	        -522.931
     238	 1.99587	 1.10249	        -10629.6	         10106.6	        -522.995
     239	 1.99935	  1.0905	        -10647.2	         10124.2	        -522.997
     240	 2.00258	 1.07953	        -10663.6	         10140.5	        -523.036
     241	 2.00518	 1.07067	        -10676.9	         10153.7	        -523.201
     242	 2.00655	 1.06579	        -10683.9	         10160.7	        -523.252
     243	  2.0064	 1.06584	          -10683	         10159.9	        -523.125
     244	  2.0049	  1.0702	        -10675.3	         10152.3	        -522.957
     245	 2.00252	 1.07752	          -10663	         10140.2	        -522.792
     246	  1.9998	 1.08618	        -10649.1	         10126.5	        -522.639
     247	 1.99728	 1.09454	        -10636.3	         10113.7	         -522.58
     248	 1.99524	 1.10164	        -10626.1	         10103.4	        -522.655
     249	 1.99368	 1.10747	        -10618.3	         10095.5	        -522.749
     250	  1.9925	 1.11229	        -10612.2	         10089.5	        -522.755
     251	 1.99173	 1.11584	        -10608.4	         10085.6	        -522.746
     252	 1.99138	 1.11803	        -10606.8	         10083.8	        -522.915
     253	 1.99102	 1.12008	        -10605.1	           10082	        -523.137
     254	 1.99012	 1.12358	        -10600.6	         10077.5	        -523.115
