    Step 	 temperature 	 pressure 	 Potential Energy 	 Kinetic Energy 	 Sum Energy

       0	  2.1647	-1.56633	        -19968.5	         18944.1	        -1024.37
       1	 2.16478	-1.56293	        -19969.2	         18944.8	        -1024.42
       2	 2.16494	-1.55254	        -19970.7	         18946.2	        -1024.56
       3	 2.16499	-1.53452	        -19971.4	         18946.6	        -1024.81
       4	 2.16458	-1.50781	        -19968.2	           18943	         -1025.2
       5	 2.16316	-1.47077	        -19956.4	         18930.6	        -1025.76
       6	 2.15996	 -1.4211	        -19929.1	         18902.6	        -1026.55
       7	 2.15388	-1.35571	        -19877.1	         18849.5	        -1027.62
       8	  2.1435	 -1.2706	        -19787.6	         18758.6	        -1028.99
       9	 2.12705	-1.16107	        -19645.3	         18614.7	        -1030.54
      10	 2.10273	-1.02245	        -19433.9	           18402	        -1031.91
      11	 2.06935	-0.852109	        -19142.4	           18110	        -1032.42
      12	 2.02738	-0.65241	        -18774.3	         17742.8	        -1031.51
      13	 1.97956	-0.432712	          -18354	         17324.5	        -1029.53
      14	 1.93025	-0.207253	        -17920.7	         16893.1	        -1027.55
      15	 1.88369	0.0101081	        -17512.1	         16485.8	         -1026.3
      16	 1.84275	0.209635	        -17153.4	         16127.7	        -1025.73
      17	 1.80889	0.385908	        -16856.9	         15831.4	        -1025.51
      18	 1.78265	0.536324	        -16627.3	         15601.9	        -1025.45
      19	 1.76404	0.660058	        -16464.7	         15439.1	        -1025.58
      20	 1.75268	0.757767	        -16365.5	         15339.7	        -1025.84
      21	 1.74792	0.831139	        -16324.2	         15298.1	        -1026.05
      22	 1.74919	 0.88195	        -16335.3	         15309.2	        -1026.18
      23	  1.7559	0.911998	        -16394.5	         15367.9	        -1026.55
      24	 1.76715	0.924377	        -16493.5	         15466.3	        -1027.19
      25	 1.78157	0.923547	        -16620.4	         15592.5	        -1027.88
      26	  1.7977	0.914336	        -16762.1	         15733.5	        -1028.54
      27	 1.81412	0.901353	        -16906.3	         15877.2	        -1029.03
      28	 1.82981	 0.88821	        -17043.7	         16014.4	        -1029.26
      29	 1.84417	0.877066	        -17169.4	         16140.1	        -1029.34
      30	 1.85697	0.869011	        -17281.5	         16252.1	        -1029.37
      31	 1.86818	0.864547	        -17379.5	         16350.1	        -1029.38
      32	 1.87781	0.863865	        -17463.8	         16434.3	        -1029.45
      33	 1.88584	  0.8672	        -17534.2	         16504.6	        -1029.63
      34	 1.89209	0.875135	        -17589.2	         16559.3	        -1029.89
      35	 1.89634	 0.88836	        -17626.5	         16596.5	        -1029.99
      36	 1.89868	0.906615	        -17646.6	         16616.9	        -1029.69
      37	 1.89977	0.927803	        -17655.7	         16626.5	        -1029.17
      38	 1.90065	0.948779	          -17663	         16634.1	        -1028.84
      39	 1.90205	0.967193	        -17675.3	         16646.4	        -1028.87
      40	 1.90416	0.982428	          -17694	         16664.9	        -1029.14
      41	 1.90677	0.995068	        -17717.1	         16687.7	        -1029.38
      42	 1.90965	 1.00573	        -17742.3	         16712.9	        -1029.44
      43	 1.91277	 1.01447	        -17769.6	         16740.2	        -1029.45
      44	 1.91619	 1.02116	        -17799.6	         16770.1	        -1029.52
      45	 1.91985	 1.02604	        -17831.8	         16802.2	        -1029.65
      46	 1.92359	  1.0297	        -17864.7	         16834.9	        -1029.83
      47	 1.92714	 1.03296	        -17895.9	         16865.9	        -1030.03
      48	 1.93026	 1.03662	        -17923.3	         16893.1	        -1030.11
      49	 1.93289	 1.04086	        -17946.2	         16916.2	        -1029.98
      50	 1.93533	 1.04489	        -17967.2	         16937.5	        -1029.73
      51	   1.938	 1.04743	        -17990.6	         16960.9	        -1029.63
      52	 1.94113	 1.04786	        -18018.1	         16988.3	        -1029.81
      53	 1.94453	 1.04677	        -18048.1	         17018.1	        -1030.08
      54	 1.94786	 1.04523	        -18077.3	         17047.1	        -1030.19
      55	 1.95098	 1.04368	        -18104.5	         17074.4	        -1030.07
      56	 1.95405	  1.0417	        -18131.2	         17101.3	        -1029.93
      57	 1.95725	 1.03885	        -18159.2	         17129.3	        -1029.97
      58	 1.96043	 1.03558	        -18187.3	         17157.2	        -1030.13
      59	 1.96328	 1.03295	        -18212.3	         17182.1	        -1030.26
      60	 1.96549	 1.03189	        -18231.7	         17201.4	         -1030.3
      61	 1.96691	 1.03284	        -18244.1	         17213.8	        -1030.28
      62	 1.96758	 1.03571	        -18249.9	         17219.7	        -1030.18
      63	 1.96775	 1.03983	        -18251.1	         17221.1	        -1029.98
      64	 1.96781	 1.04401	        -18251.5	         17221.7	        -1029.78
      65	 1.96821	 1.04696	        -18254.9	         17225.2	        -1029.69
      66	 1.96921	 1.04792	        -18263.7	         17233.9	        -1029.73
      67	 1.97084	 1.04685	          -18278	         17248.2	        -1029.86
      68	 1.97294	 1.04427	        -18296.5	         17266.5	        -1030.02
      69	 1.97525	 1.04098	          -18317	         17286.8	        -1030.17
      70	 1.97752	 1.03781	          -18337	         17306.7	        -1030.38
      71	 1.97941	 1.03578	        -18353.8	         17323.2	        -1030.68
      72	  1.9805	 1.03618	        -18363.6	         17332.7	        -1030.93
      73	 1.98051	 1.03988	        -18363.7	         17332.8	         -1030.9
      74	 1.97966	 1.04632	        -18355.8	         17325.3	        -1030.49
      75	 1.97865	 1.05339	        -18346.7	         17316.5	        -1030.13
      76	 1.97809	 1.05928	        -18341.7	         17311.6	        -1030.13
      77	 1.97799	 1.06395	        -18341.1	         17310.7	        -1030.39
      78	  1.9779	  1.0687	        -18340.7	         17309.9	        -1030.74
      79	 1.97721	 1.07531	        -18334.9	         17303.9	        -1030.99
      80	  1.9755	 1.08497	          -18320	           17289	        -1031.02
      81	 1.97274	 1.09773	        -18295.7	         17264.8	        -1030.85
      82	 1.96925	 1.11258	        -18264.9	         17234.3	        -1030.64
      83	 1.96546	 1.12819	        -18231.7	         17201.1	        -1030.54
      84	 1.96171	  1.1435	        -18198.8	         17168.3	        -1030.45
      85	  1.9583	  1.1576	        -18168.8	         17138.5	        -1030.36
      86	 1.95549	 1.16963	        -18144.3	         17113.9	        -1030.41
      87	 1.95328	 1.17949	        -18125.3	         17094.6	        -1030.68
      88	  1.9514	 1.18806	          -18109	         17078.1	        -1030.94
      89	 1.94958	 1.19612	        -18093.1	         17062.2	        -1030.89
      90	 1.94798	 1.20319	        -18078.9	         17048.2	        -1030.66
      91	   1.947	  1.2081	        -18070.2	         17039.6	        -1030.56
      92	 1.94684	 1.21026	        -18068.9	         17038.2	        -1030.64
      93	  1.9474	 1.21001	        -18073.9	         17043.2	        -1030.76
      94	 1.94848	   1.208	        -18083.4	         17052.6	        -1030.83
      95	  1.9499	 1.20471	        -18095.9	           17065	        -1030.92
      96	  1.9515	 1.20062	          -18110	           17079	        -1031.06
      97	 1.95307	 1.19632	        -18123.9	         17092.7	        -1031.14
      98	 1.95451	 1.19211	        -18136.4	         17105.3	         -1031.1
      99	 1.95589	 1.18774	        -18148.4	         17117.4	        -1030.96
     100	 1.95743	 1.18257	        -18161.7	         17130.9	         -1030.8
     101	 1.95935	 1.17595	        -18178.4	         17147.7	        -1030.71
     102	 1.96173	 1.16767	        -18199.3	         17168.5	        -1030.77
     103	 1.96438	 1.15834	        -18222.6	         17191.7	        -1030.97
     104	 1.96687	 1.14925	        -18244.6	         17213.5	        -1031.14
     105	 1.96882	 1.14156	        -18261.7	         17230.5	        -1031.21
     106	 1.97003	 1.13584	        -18272.3	         17241.1	        -1031.14
     107	 1.97061	 1.13183	        -18277.1	         17246.2	        -1030.88
     108	 1.97097	 1.12832	        -18279.9	         17249.3	        -1030.55
     109	 1.97164	 1.12376	        -18285.4	         17255.2	        -1030.28
     110	 1.97308	 1.11685	        -18297.9	         17267.8	        -1030.12
     111	 1.97554	 1.10694	        -18319.5	         17289.3	         -1030.2
     112	 1.97879	 1.09476	        -18348.4	         17317.7	        -1030.67
     113	   1.982	 1.08281	        -18377.1	         17345.9	        -1031.23
     114	 1.98423	 1.07403	        -18396.8	         17365.3	        -1031.52
     115	 1.98491	 1.07007	        -18402.7	         17371.3	         -1031.4
     116	  1.9842	 1.07053	        -18396.1	           17365	        -1031.04
     117	 1.98265	  1.0737	        -18382.2	         17351.5	        -1030.68
     118	 1.98094	 1.07763	          -18367	         17336.5	        -1030.43
     119	 1.97953	 1.08088	        -18354.6	         17324.2	        -1030.35
     120	 1.97864	 1.08283	        -18346.8	         17316.4	         -1030.4
     121	 1.97821	 1.08355	        -18343.2	         17312.7	        -1030.49
     122	 1.97811	 1.08345	        -18342.4	         17311.8	        -1030.58
     123	 1.97816	 1.08305	        -18342.8	         17312.2	        -1030.63
     124	 1.97822	 1.08272	        -18343.4	         17312.8	        -1030.61
     125	 1.97828	 1.08257	        -18343.8	         17313.3	        -1030.54
     126	 1.97836	 1.08254	        -18344.5	           17314	        -1030.54
     127	  1.9784	 1.08284	          -18345	         17314.3	        -1030.74
     128	 1.97805	 1.08447	        -18342.3	         17311.2	        -1031.03
     129	 1.97691	 1.08863	        -18332.4	         17301.3	        -1031.11
     130	 1.97495	 1.09541	        -18314.9	         17284.1	        -1030.84
     131	 1.97266	 1.10327	        -18294.6	         17264.1	        -1030.49
     132	 1.97065	 1.11031	          -18277	         17246.6	        -1030.43
     133	 1.96914	 1.11581	          -18264	         17233.3	        -1030.71
     134	 1.96784	 1.12053	          -18253	           17222	        -1031.03
     135	  1.9665	 1.12526	        -18241.2	         17210.2	        -1030.95
     136	 1.96533	 1.12926	        -18230.8	           17200	        -1030.79
     137	 1.96458	 1.13167	        -18224.4	         17193.4	        -1030.95
     138	 1.96413	 1.13301	        -18220.4	         17189.5	        -1030.86
     139	 1.96402	  1.1331	        -18219.1	         17188.5	         -1030.6
     140	 1.96449	 1.13121	        -18223.1	         17192.6	         -1030.5
     141	 1.96557	 1.12723	        -18232.7	         17202.1	        -1030.63
     142	 1.96698	 1.12204	        -18245.3	         17214.4	        -1030.82
     143	 1.96841	 1.11665	        -18257.7	         17226.9	        -1030.82
     144	 1.96978	 1.11123	        -18269.7	         17238.9	        -1030.81
     145	 1.97101	 1.10597	        -18280.6	         17249.7	        -1030.93
     146	 1.97198	 1.10142	        -18288.9	         17258.1	        -1030.73
     147	  1.9729	  1.0969	        -18296.5	         17266.2	        -1030.35
     148	 1.97423	 1.09101	        -18308.1	         17277.8	        -1030.25
     149	 1.97611	  1.0834	        -18324.7	         17294.3	        -1030.42
     150	  1.9783	 1.07486	          -18344	         17313.4	        -1030.56
     151	 1.98056	  1.0661	        -18363.8	         17333.2	        -1030.59
     152	 1.98281	  1.0574	        -18383.5	         17352.9	         -1030.6
     153	 1.98504	 1.04889	        -18403.1	         17372.4	        -1030.68
     154	 1.98708	 1.04111	        -18421.2	         17390.2	        -1030.94
     155	 1.98852	 1.03531	        -18434.1	         17402.9	        -1031.23
     156	 1.98895	 1.03283	        -18437.9	         17406.6	        -1031.28
     157	 1.98827	 1.03395	        -18431.8	         17400.7	        -1031.12
     158	 1.98672	 1.03796	        -18417.9	         17387.1	        -1030.87
     159	 1.98467	 1.04368	        -18399.8	         17369.2	        -1030.62
     160	 1.98257	 1.04978	        -18381.2	         17350.8	        -1030.34
     161	  1.9809	  1.0548	        -18366.2	         17336.2	        -1030.05
     162	 1.98009	 1.05735	        -18359.1	         17329.1	        -1029.96
     163	 1.98026	 1.05701	        -18360.7	         17330.6	         -1030.1
     164	 1.98115	 1.05454	        -18368.7	         17338.4	        -1030.35
     165	 1.98228	 1.05132	        -18378.9	         17348.3	        -1030.64
     166	 1.98315	 1.04889	        -18386.7	         17355.9	        -1030.84
     167	  1.9834	 1.04831	        -18388.9	           17358	        -1030.85
     168	 1.98303	 1.04962	        -18385.5	         17354.8	        -1030.73
     169	 1.98224	 1.05224	        -18378.6	         17347.9	        -1030.67
     170	  1.9812	 1.05571	        -18369.5	         17338.8	        -1030.68
     171	 1.97996	 1.05985	        -18358.7	           17328	        -1030.67
     172	 1.97859	 1.06449	        -18346.6	           17316	        -1030.62
     173	 1.97717	 1.06933	        -18334.1	         17303.6	        -1030.55
     174	  1.9758	 1.07402	          -18322	         17291.5	        -1030.46
     175	 1.97458	 1.07816	        -18311.3	         17280.9	        -1030.37
     176	 1.97366	 1.08136	        -18303.1	         17272.8	        -1030.27
     177	 1.97314	 1.08319	        -18298.5	         17268.3	        -1030.19
     178	 1.97311	 1.08336	        -18298.3	           17268	        -1030.23
     179	 1.97349	 1.08208	        -18301.7	         17271.4	        -1030.36
     180	 1.97407	 1.07997	          -18307	         17276.5	        -1030.51
     181	 1.97461	 1.07774	        -18311.8	         17281.2	        -1030.65
     182	 1.97491	   1.076	        -18314.6	         17283.8	        -1030.79
     183	  1.9748	 1.07525	        -18313.7	         17282.9	        -1030.85
     184	 1.97429	 1.07558	        -18309.2	         17278.4	        -1030.79
     185	 1.97352	 1.07657	        -18302.4	         17271.6	        -1030.71
     186	 1.97271	 1.07767	        -18295.1	         17264.5	         -1030.6
     187	 1.97211	 1.07819	        -18289.7	         17259.3	         -1030.4
     188	 1.97207	 1.07717	        -18289.1	         17258.9	         -1030.2
     189	 1.97288	  1.0738	        -18296.2	           17266	        -1030.16
     190	 1.97452	 1.06812	        -18310.7	         17280.4	        -1030.34
     191	 1.97667	 1.06121	        -18329.7	         17299.2	        -1030.58
     192	 1.97883	 1.05448	        -18348.9	         17318.1	        -1030.82
     193	 1.98049	 1.04943	        -18363.7	         17332.6	        -1031.13
     194	 1.98107	 1.04771	        -18369.1	         17337.7	        -1031.43
     195	 1.98007	 1.05072	        -18360.4	         17328.9	        -1031.53
     196	 1.97739	 1.05867	        -18336.7	         17305.4	        -1031.25
     197	  1.9736	 1.06974	        -18302.9	         17272.4	        -1030.51
     198	 1.97006	 1.07994	        -18270.9	         17241.3	        -1029.56
     199	 1.96831	 1.08451	        -18255.1	         17226.1	        -1029.05
     200	 1.96921	  1.0809	        -18263.2	         17233.9	        -1029.31
     201	 1.97236	  1.0703	        -18291.5	         17261.5	        -1030.01
     202	 1.97659	 1.05626	        -18329.2	         17298.5	        -1030.64
     203	 1.98074	 1.04226	        -18365.7	         17334.8	        -1030.91
     204	 1.98419	 1.03026	        -18395.9	           17365	        -1030.87
     205	  1.9868	 1.02075	        -18418.6	         17387.8	        -1030.84
     206	 1.98848	 1.01411	        -18433.4	         17402.5	        -1030.87
     207	 1.98915	 1.01074	        -18439.2	         17408.3	        -1030.83
     208	 1.98882	 1.01063	        -18436.3	         17405.5	        -1030.78
     209	 1.98761	 1.01343	        -18425.7	         17394.9	        -1030.76
     210	 1.98565	 1.01878	        -18408.5	         17377.8	        -1030.71
     211	 1.98316	 1.02599	        -18386.5	           17356	        -1030.57
     212	  1.9805	 1.03395	          -18363	         17332.6	        -1030.39
     213	 1.97805	 1.04144	        -18341.6	         17311.3	        -1030.32
     214	 1.97604	 1.04776	        -18324.1	         17293.7	        -1030.45
     215	 1.97436	 1.05311	        -18309.6	         17278.9	        -1030.65
     216	 1.97283	 1.05797	        -18296.2	         17265.6	        -1030.61
     217	 1.97164	 1.06179	        -18285.4	         17255.2	        -1030.22
     218	 1.97141	 1.06267	          -18283	         17253.1	         -1029.9
     219	 1.97256	 1.05928	        -18293.3	         17263.2	        -1030.04
     220	 1.97482	 1.05253	        -18313.5	           17283	         -1030.5
     221	 1.97731	 1.04506	        -18335.7	         17304.8	        -1030.94
     222	 1.97915	 1.03951	          -18352	         17320.9	        -1031.13
     223	 1.97989	  1.0373	        -18358.4	         17327.3	        -1031.08
     224	 1.97949	 1.03851	        -18354.8	         17323.9	         -1030.9
     225	 1.97825	 1.04238	        -18343.7	           17313	         -1030.7
     226	 1.97653	 1.04781	        -18328.5	         17297.9	        -1030.53
     227	 1.97469	 1.05375	        -18312.3	         17281.9	         -1030.4
     228	 1.97303	 1.05929	        -18297.7	         17267.4	        -1030.32
     229	 1.97173	 1.06387	        -18286.3	           17256	        -1030.38
     230	 1.97071	 1.06761	        -18277.6	           17247	        -1030.59
     231	 1.96966	 1.07135	        -18268.7	         17237.9	        -1030.85
     232	 1.96821	 1.07613	        -18256.2	         17225.2	        -1031.03
     233	  1.9662	 1.08239	        -18238.6	         17207.6	        -1030.97
     234	 1.96387	 1.08937	        -18217.9	         17187.3	        -1030.65
     235	 1.96191	 1.09504	        -18200.3	         17170.1	        -1030.27
     236	 1.96101	 1.09726	        -18192.4	         17162.2	        -1030.21
     237	 1.96131	 1.09558	        -18195.4	         17164.8	        -1030.58
     238	 1.96229	 1.09151	        -18204.3	         17173.4	        -1030.88
     239	 1.96345	 1.08656	        -18214.4	         17183.5	        -1030.86
     240	 1.96468	 1.08096	          -18225	         17194.3	        -1030.71
     241	 1.96613	 1.07426	        -18237.5	           17207	        -1030.52
     242	 1.96806	 1.06581	        -18254.2	         17223.8	        -1030.31
     243	 1.97072	 1.05488	        -18277.3	         17247.1	         -1030.2
     244	 1.97424	 1.04122	        -18308.2	         17277.9	        -1030.27
     245	 1.97848	 1.02538	        -18345.4	           17315	        -1030.38
     246	 1.98323	 1.00817	          -18387	         17356.6	        -1030.37
     247	 1.98833	0.990171	        -18431.7	         17401.2	        -1030.53
     248	 1.99331	0.972831	        -18475.7	         17444.7	           -1031
     249	 1.99732	0.958856	        -18511.1	         17479.8	        -1031.33
     250	 1.99966	0.950374	        -18531.7	         17500.3	        -1031.38
     251	 2.00012	0.948048	        -18535.6	         17504.4	        -1031.28
     252	 1.99882	0.951532	        -18524.1	         17492.9	        -1031.13
     253	 1.99604	0.959946	        -18499.6	         17468.7	        -1030.94
     254	 1.99222	0.971958	        -18465.9	         17435.2	        -1030.66
